

time(ps), Y
1.20192, 0.0200598
2.40385, 0.0201058
3.60577, 0.0201498
4.80769, 0.0201911
6.00962, 0.0202301
7.21154, 0.0202691
8.41346, 0.020307
9.61538, 0.0203416
10.8173, 0.0203751
12.0192, 0.0204078
13.2212, 0.0204414
14.4231, 0.0204756
15.625, 0.0205084
16.8269, 0.0205385
18.0288, 0.0205666
19.2308, 0.0205957
20.4327, 0.0206256
21.6346, 0.0206524
22.8365, 0.0206764
24.0385, 0.0207006
25.2404, 0.0207238
26.4423, 0.0207451
27.6442, 0.0207661
28.8462, 0.0207881
30.0481, 0.0208072
31.25, 0.0208259
32.4519, 0.0208449
33.6538, 0.0208628
34.8558, 0.0208829
36.0577, 0.0209025
37.2596, 0.0209208
38.4615, 0.020938
39.6635, 0.0209534
40.8654, 0.0209672
42.0673, 0.0209813
43.2692, 0.0209957
44.4712, 0.0210089
45.6731, 0.0210215
46.875, 0.021034
48.0769, 0.0210453
49.2788, 0.0210564
50.4808, 0.0210682
51.6827, 0.0210807
52.8846, 0.0210918
54.0865, 0.0211016
55.2885, 0.0210659
56.4904, 0.0208792
57.6923, 0.0204914
58.8942, 0.019951
60.0962, 0.019337
61.2981, 0.0187074
62.5, 0.0180877
63.7019, 0.0174864
64.9038, 0.0169046
66.1058, 0.0163421
67.3077, 0.0157984
68.5096, 0.0152727
69.7115, 0.0147646
70.9135, 0.0142733
72.1154, 0.0137984
73.3173, 0.0133393
74.5192, 0.0128954
75.7212, 0.0124664
76.9231, 0.0120516
78.125, 0.0116506
79.3269, 0.0112629
80.5288, 0.0108882
81.7308, 0.0105259
82.9327, 0.0101757
84.1346, 0.00983711
85.3365, 0.0095098
86.5385, 0.00919338
87.7404, 0.00888749
88.9423, 0.00859178
90.1442, 0.00830591
91.3462, 0.00802954
92.5481, 0.00776238
93.75, 0.0075041
94.9519, 0.00725442
96.1538, 0.00701304
97.3558, 0.0067797
98.5577, 0.00655412
99.7596, 0.00633605
100.962, 0.00612523
102.163, 0.00592142
103.365, 0.0057244
104.567, 0.00553393
105.769, 0.0053498
106.971, 0.0051718
108.173, 0.00499972
109.375, 0.00483336
110.577, 0.00467254
111.779, 0.00451708
112.981, 0.00436678
114.183, 0.00422148
115.385, 0.00408102
116.587, 0.00394524
117.788, 0.00381397
118.99, 0.00368707
120.192, 0.00356439
121.394, 0.00344579
122.596, 0.00333114
123.798, 0.0032203
125, 0.00311315
126.202, 0.00300957
127.404, 0.00290943
128.606, 0.00281263
129.808, 0.00271904
131.01, 0.00262857
132.212, 0.0025879
133.413, 0.00270082
134.615, 0.00301794
135.817, 0.0034903
137.019, 0.00403697
138.221, 0.0046006
139.423, 0.00515702
140.625, 0.00569882
141.827, 0.00622207
143.029, 0.00672727
144.231, 0.00721683
145.433, 0.00769005
146.635, 0.00814602
147.837, 0.00858659
149.038, 0.00901244
150.24, 0.00942408
151.442, 0.00982206
152.644, 0.0102087
153.846, 0.010582
155.048, 0.0109405
156.25, 0.0112875
157.452, 0.0116219
158.654, 0.0119445
159.856, 0.0122584
161.058, 0.0125636
162.26, 0.0128584
163.462, 0.0131429
164.663, 0.0134195
165.865, 0.0136859
167.067, 0.0139432
168.269, 0.0141929
169.471, 0.0144317
170.673, 0.0146628
171.875, 0.0148881
173.077, 0.0151055
174.279, 0.0153146
175.481, 0.0155169
176.683, 0.0157128
177.885, 0.0159018
179.087, 0.0160855
180.288, 0.0162645
181.49, 0.0164354
182.692, 0.0165998
183.894, 0.0167596
185.096, 0.0169154
186.298, 0.0170661
187.5, 0.0172109
188.702, 0.017351
189.904, 0.0174851
191.106, 0.0176148
192.308, 0.0177407
193.51, 0.0178635
194.712, 0.0179833
195.913, 0.0180979
197.115, 0.0182087
198.317, 0.0183165
199.519, 0.0184208
200.721, 0.0185199
201.923, 0.0186157
203.125, 0.0187104
204.327, 0.0187994
205.529, 0.0188849
206.731, 0.0189681
207.933, 0.0190478
209.135, 0.0190788
210.337, 0.0189571
211.538, 0.0186328
212.74, 0.0181534
213.942, 0.017599
215.144, 0.0170269
216.346, 0.0164632
217.548, 0.0159158
218.75, 0.0153863
219.952, 0.0148744
221.154, 0.0143795
222.356, 0.013901
223.558, 0.0134385
224.76, 0.0129913
225.962, 0.0125591
227.163, 0.0121412
228.365, 0.0117372
229.567, 0.0113467
230.769, 0.0109692
231.971, 0.0106042
233.173, 0.0102514
234.375, 0.00991027
235.577, 0.00958052
236.779, 0.00926175
237.981, 0.00895359
239.183, 0.00865568
240.385, 0.00836768
241.587, 0.00808926
242.788, 0.00782011
243.99, 0.00755991
245.192, 0.00730837
246.394, 0.0070652
247.596, 0.00683012
248.798, 0.00660286
250, 0.00638317
251.202, 0.00617078
252.404, 0.00596546
253.606, 0.00576697
254.808, 0.00557509
256.01, 0.00538959
257.212, 0.00521026
258.413, 0.0050369
259.615, 0.00486931
260.817, 0.00470729
262.019, 0.00455067
263.221, 0.00439926
264.423, 0.00425288
265.625, 0.00411137
266.827, 0.00397458
268.029, 0.00384233
269.231, 0.00371449
270.433, 0.00359089
271.635, 0.00347142
272.837, 0.00335591
274.038, 0.00324425
275.24, 0.00313631
276.442, 0.00303195
277.644, 0.00293107
278.846, 0.00283354
280.048, 0.00273926
281.25, 0.00264812
282.452, 0.00256001
283.654, 0.00247483
284.856, 0.00239249
286.058, 0.00231288
287.26, 0.00223593
288.462, 0.00216153
289.663, 0.00208961
290.865, 0.00202008
292.067, 0.00195287
293.269, 0.00188789
294.471, 0.00182508
295.673, 0.00176435
296.875, 0.00170565
298.077, 0.00164889
299.279, 0.00159403
300.481, 0.00154099
301.683, 0.00148972
302.885, 0.00144015
304.087, 0.00139223
305.288, 0.00134591
306.49, 0.00130113
307.692, 0.00125784



time(ps), Y
1.20192, 0.00121598
2.40385, 0.00117552
3.60577, 0.00113641
4.80769, 0.0010986
6.00962, 0.00106205
7.21154, 0.00102671
8.41346, 0.000992548
9.61538, 0.000959523
10.8173, 0.000927597
12.0192, 0.000896733
13.2212, 0.000866896
14.4231, 0.000838052
15.625, 0.000810168
16.8269, 0.000783211
18.0288, 0.000757151
19.2308, 0.000731959
20.4327, 0.000707604
21.6346, 0.00068406
22.8365, 0.0006613
24.0385, 0.000639296
25.2404, 0.000618025
26.4423, 0.000597462
27.6442, 0.000577582
28.8462, 0.000558364
30.0481, 0.000539786
31.25, 0.000521826
32.4519, 0.000504463
33.6538, 0.000487678
34.8558, 0.000471452
36.0577, 0.000455765
37.2596, 0.000440601
38.4615, 0.000425941
39.6635, 0.000411768
40.8654, 0.000398068
42.0673, 0.000384823
43.2692, 0.000372019
44.4712, 0.000359641
45.6731, 0.000347674
46.875, 0.000336106
48.0769, 0.000324923
49.2788, 0.000314112
50.4808, 0.00030366
51.6827, 0.000293557
52.8846, 0.000283789
54.0865, 0.000274347
55.2885, 0.000311911
56.4904, 0.000498573
57.6923, 0.000885427
58.8942, 0.00142841
60.0962, 0.00204448
61.2981, 0.00267397
62.5, 0.00329316
63.7019, 0.00389375
64.9038, 0.00447645
66.1058, 0.00504032
67.3077, 0.00558315
68.5096, 0.00610915
69.7115, 0.00661772
70.9135, 0.00710781
72.1154, 0.00758289
73.3173, 0.00804193
74.5192, 0.00848641
75.7212, 0.0089178
76.9231, 0.00933398
78.125, 0.00973711
79.3269, 0.010127
80.5288, 0.0105028
81.7308, 0.0108664
82.9327, 0.0112167
84.1346, 0.011556
85.3365, 0.0118844
86.5385, 0.0121999
87.7404, 0.0125058
88.9423, 0.0128024
90.1442, 0.0130883
91.3462, 0.0133659
92.5481, 0.0136355
93.75, 0.0138958
94.9519, 0.0141474
96.1538, 0.0143904
97.3558, 0.0146263
98.5577, 0.0148524
99.7596, 0.01507
100.962, 0.0152821
102.163, 0.0154842
103.365, 0.015679
104.567, 0.0158694
105.769, 0.0160545
106.971, 0.0162338
108.173, 0.016407
109.375, 0.0165736
110.577, 0.0167355
111.779, 0.0168935
112.981, 0.0170448
114.183, 0.0171889
115.385, 0.017328
116.587, 0.0174635
117.788, 0.0175925
118.99, 0.0177189
120.192, 0.0178429
121.394, 0.0179619
122.596, 0.0180786
123.798, 0.0181897
125, 0.0182947
126.202, 0.0183968
127.404, 0.0184956
128.606, 0.0185908
129.808, 0.0186842
131.01, 0.0187761
132.212, 0.0188167
133.413, 0.0187029
134.615, 0.0183867
135.817, 0.0179161
137.019, 0.0173694
138.221, 0.0168044
139.423, 0.0162481
140.625, 0.0157079
141.827, 0.0151853
143.029, 0.0146801
144.231, 0.0141916
145.433, 0.0137194
146.635, 0.013263
147.837, 0.0128217
149.038, 0.012395
150.24, 0.0119826
151.442, 0.0115839
152.644, 0.0111985
153.846, 0.0108259
155.048, 0.0104657
156.25, 0.0101175
157.452, 0.00978082
158.654, 0.00945539
159.856, 0.00914078
161.058, 0.00883664
162.26, 0.00854262
163.462, 0.00825838
164.663, 0.0079836
165.865, 0.00771797
167.067, 0.00746117
168.269, 0.00721291
169.471, 0.00697292
170.673, 0.00674091
171.875, 0.00651662
173.077, 0.00629979
174.279, 0.00609018
175.481, 0.00588754
176.683, 0.00569165
177.885, 0.00550227
179.087, 0.00531919
180.288, 0.00514221
181.49, 0.00497111
182.692, 0.00480571
183.894, 0.00464581
185.096, 0.00449123
186.298, 0.0043418
187.5, 0.00419733
188.702, 0.00405767
189.904, 0.00392266
191.106, 0.00379215
192.308, 0.00366597
193.51, 0.00354399
194.712, 0.00342607
195.913, 0.00331208
197.115, 0.00320188
198.317, 0.00309534
199.519, 0.00299235
200.721, 0.00289279
201.923, 0.00279653
203.125, 0.00270349
204.327, 0.00261353
205.529, 0.00252657
206.731, 0.00244251
207.933, 0.00236124
209.135, 0.00232878
210.337, 0.00244992
211.538, 0.00277529
212.74, 0.00325362
213.942, 0.00380752
215.144, 0.00438094
216.346, 0.00494519
217.548, 0.00549232
218.75, 0.00602145
219.952, 0.00653238
221.154, 0.00702754
222.356, 0.00750761
223.558, 0.0079704
224.76, 0.00841655
225.962, 0.00884897
227.163, 0.00926804
228.365, 0.00967276
229.567, 0.0100634
230.769, 0.0104393
231.971, 0.0108021
233.173, 0.0111539
234.375, 0.0114938
235.577, 0.011822
236.779, 0.0121413
237.981, 0.0124499
239.183, 0.0127448
240.385, 0.0130318
241.587, 0.013314
242.788, 0.0135853
243.99, 0.0138448
245.192, 0.0140956
246.394, 0.014339
247.596, 0.0145737
248.798, 0.0148025
250, 0.0150248
251.202, 0.0152378
252.404, 0.0154421
253.606, 0.0156397
254.808, 0.0158318
256.01, 0.0160173
257.212, 0.0161979
258.413, 0.0163724
259.615, 0.0165396
260.817, 0.0167027
262.019, 0.0168612
263.221, 0.0170129
264.423, 0.0171578
265.625, 0.0173
266.827, 0.0174393
268.029, 0.0175712
269.231, 0.0176993
270.433, 0.0178233
271.635, 0.0179413
272.837, 0.0180541
274.038, 0.0181654
275.24, 0.018275
276.442, 0.0183779
277.644, 0.0184777
278.846, 0.0185759
280.048, 0.018671
281.25, 0.018763
282.452, 0.0188508
283.654, 0.0189345
284.856, 0.0190155
286.058, 0.0190952
287.26, 0.0191743
288.462, 0.0192504
289.663, 0.0193239
290.865, 0.0193935
292.067, 0.0194586
293.269, 0.0195231
294.471, 0.019587
295.673, 0.019649
296.875, 0.0197075
298.077, 0.0197618
299.279, 0.0198148
300.481, 0.0198676
301.683, 0.0199184
302.885, 0.0199678
304.087, 0.0200166
305.288, 0.0200638
306.49, 0.0201112
307.692, 0.0201582



time(ps), Y
1.20192, 0.0202017
2.40385, 0.0202428
3.60577, 0.020281
4.80769, 0.0203155
6.00962, 0.0203494
7.21154, 0.0203842
8.41346, 0.0204192
9.61538, 0.0204535
10.8173, 0.0204872
12.0192, 0.0205203
13.2212, 0.0205497
14.4231, 0.020576
15.625, 0.0206025
16.8269, 0.0206289
18.0288, 0.0206541
19.2308, 0.0206795
20.4327, 0.0207048
21.6346, 0.0207287
22.8365, 0.0207516
24.0385, 0.0207719
25.2404, 0.0207909
26.4423, 0.0208095
27.6442, 0.0208286
28.8462, 0.0208478
30.0481, 0.0208659
31.25, 0.0208837
32.4519, 0.0208997
33.6538, 0.0209153
34.8558, 0.0209308
36.0577, 0.020945
37.2596, 0.0209604
38.4615, 0.0209745
39.6635, 0.0209879
40.8654, 0.0210022
42.0673, 0.0210153
43.2692, 0.0210278
44.4712, 0.0210384
45.6731, 0.0210468
46.875, 0.0210558
48.0769, 0.0210665
49.2788, 0.0210779
50.4808, 0.0210899
51.6827, 0.021103
52.8846, 0.0211133
54.0865, 0.0211204
55.2885, 0.0211274
56.4904, 0.0211343
57.6923, 0.0211429
58.8942, 0.0211516
60.0962, 0.0211583
61.2981, 0.0211662
62.5, 0.0211747
63.7019, 0.0211814
64.9038, 0.0211864
66.1058, 0.0211933
67.3077, 0.0212023
68.5096, 0.0212098
69.7115, 0.0212171
70.9135, 0.0212224
72.1154, 0.0212249
73.3173, 0.0212287
74.5192, 0.0212356
75.7212, 0.0212415
76.9231, 0.0212459
78.125, 0.0212513
79.3269, 0.0212567
80.5288, 0.0212607
81.7308, 0.0212642
82.9327, 0.0212694
84.1346, 0.0212749
85.3365, 0.0212799
86.5385, 0.0212846
87.7404, 0.0212863
88.9423, 0.0212879
90.1442, 0.0212915
91.3462, 0.0212962
92.5481, 0.0213009
93.75, 0.0213039
94.9519, 0.0213078
96.1538, 0.0213123
97.3558, 0.0213147
98.5577, 0.0213168
99.7596, 0.0213193
100.962, 0.0213215
102.163, 0.0213243
103.365, 0.0213279
104.567, 0.0213314
105.769, 0.0213358
106.971, 0.0213401
108.173, 0.0213427
109.375, 0.021346
110.577, 0.0213499
111.779, 0.021352
112.981, 0.0213536
114.183, 0.0213555
115.385, 0.0213572
116.587, 0.0213583
117.788, 0.0213575
118.99, 0.021357
120.192, 0.0213592
121.394, 0.0213634
122.596, 0.0213652
123.798, 0.0213656
125, 0.0213669
126.202, 0.0213681
127.404, 0.0213707
128.606, 0.0213751
129.808, 0.0213766
131.01, 0.0213759
132.212, 0.0213305
133.413, 0.0211348
134.615, 0.020738
135.817, 0.0201885
137.019, 0.0195663
138.221, 0.0189287
139.423, 0.0183016
140.625, 0.0176931
141.827, 0.0171044
143.029, 0.0165353
144.231, 0.0159852
145.433, 0.0154533
146.635, 0.0149391
147.837, 0.014442
149.038, 0.0139615
150.24, 0.013497
151.442, 0.0130479
152.644, 0.0126137
153.846, 0.0121941
155.048, 0.0117883
156.25, 0.0113961
157.452, 0.0110169
158.654, 0.0106503
159.856, 0.010296
161.058, 0.0099534
162.26, 0.00962222
163.462, 0.00930207
164.663, 0.00899256
165.865, 0.00869335
167.067, 0.0084041
168.269, 0.00812447
169.471, 0.00785415
170.673, 0.00759282
171.875, 0.00734018
173.077, 0.00709595
174.279, 0.00685985
175.481, 0.0066316
176.683, 0.00641095
177.885, 0.00619764
179.087, 0.00599143
180.288, 0.00579207
181.49, 0.00559936
182.692, 0.00541305
183.894, 0.00523294
185.096, 0.00505883
186.298, 0.00489051
187.5, 0.00472778
188.702, 0.00457048
189.904, 0.0044184
191.106, 0.00427139
192.308, 0.00412927
193.51, 0.00399188
194.712, 0.00385906
195.913, 0.00373065
197.115, 0.00360652
198.317, 0.00348653
199.519, 0.00337052
200.721, 0.00325837
201.923, 0.00314996
203.125, 0.00304515
204.327, 0.00294383
205.529, 0.00284588
206.731, 0.00275119
207.933, 0.00265965
209.135, 0.00261684
210.337, 0.0027272
211.538, 0.00304225
212.74, 0.00351223
213.942, 0.00405767
215.144, 0.0046206
216.346, 0.00517453
217.548, 0.00571351
218.75, 0.00623686
219.952, 0.00674205
221.154, 0.00722907
222.356, 0.00770135
223.558, 0.00815826
224.76, 0.00859827
225.962, 0.00902349
227.163, 0.0094349
228.365, 0.00983342
229.567, 0.0102191
230.769, 0.0105913
231.971, 0.0109497
233.173, 0.0112966
234.375, 0.0116333
235.577, 0.0119592
236.779, 0.0122759
237.981, 0.0125797
239.183, 0.0128716
240.385, 0.013156
241.587, 0.0134307
242.788, 0.013694
243.99, 0.0139494
245.192, 0.014198
246.394, 0.0144369
247.596, 0.0146692
248.798, 0.0148931
250, 0.0151065
251.202, 0.0153141
252.404, 0.0155167
253.606, 0.0157133
254.808, 0.0159011
256.01, 0.0160829
257.212, 0.0162611
258.413, 0.0164338
259.615, 0.0165995
260.817, 0.0167588
262.019, 0.0169124
263.221, 0.01706
264.423, 0.0172042
265.625, 0.0173437
266.827, 0.0174796
268.029, 0.0176126
269.231, 0.0177403
270.433, 0.0178626
271.635, 0.0179819
272.837, 0.0180975
274.038, 0.0182061
275.24, 0.018312
276.442, 0.0184137
277.644, 0.01851
278.846, 0.0186048
280.048, 0.0186987
281.25, 0.0187885
282.452, 0.0188732
283.654, 0.0189567
284.856, 0.0190376
286.058, 0.0191169
287.26, 0.0191943
288.462, 0.0192699
289.663, 0.019342
290.865, 0.01941
292.067, 0.0194768
293.269, 0.0195398
294.471, 0.0196009
295.673, 0.0196607
296.875, 0.0197173
298.077, 0.0197723
299.279, 0.0198268
300.481, 0.0198798
301.683, 0.0199314
302.885, 0.0199808
304.087, 0.0200263
305.288, 0.0200696
306.49, 0.0201149
307.692, 0.0201593



time(ps), Y
1.20192, 0.020201
2.40385, 0.0202405
3.60577, 0.0202791
4.80769, 0.0203168
6.00962, 0.0203531
7.21154, 0.0203881
8.41346, 0.0204215
9.61538, 0.0204553
10.8173, 0.0204883
12.0192, 0.0205201
13.2212, 0.0205503
14.4231, 0.020576
15.625, 0.0206014
16.8269, 0.0206277
18.0288, 0.020655
19.2308, 0.0206846
20.4327, 0.0207101
21.6346, 0.0207317
22.8365, 0.0207543
24.0385, 0.0207772
25.2404, 0.0207996
26.4423, 0.0208216
27.6442, 0.0208413
28.8462, 0.0208597
30.0481, 0.0208778
31.25, 0.0208957
32.4519, 0.0209129
33.6538, 0.020928
34.8558, 0.0209432
36.0577, 0.0209608
37.2596, 0.0209789
38.4615, 0.0209962
39.6635, 0.0210121
40.8654, 0.0210256
42.0673, 0.0210397
43.2692, 0.0210526
44.4712, 0.0210628
45.6731, 0.0210736
46.875, 0.0210841
48.0769, 0.021095
49.2788, 0.0211058
50.4808, 0.021117
51.6827, 0.0211263
52.8846, 0.0211353
54.0865, 0.0211453
55.2885, 0.021154
56.4904, 0.0211627
57.6923, 0.0211699
58.8942, 0.0211782
60.0962, 0.0211866
61.2981, 0.0211943
62.5, 0.0212039
63.7019, 0.0212128
64.9038, 0.0212187
66.1058, 0.0212236
67.3077, 0.0212292
68.5096, 0.0212336
69.7115, 0.0212389
70.9135, 0.0212444
72.1154, 0.0212493
73.3173, 0.0212538
74.5192, 0.0212578
75.7212, 0.0212619
76.9231, 0.0212658
78.125, 0.0212707
79.3269, 0.0212762
80.5288, 0.0212836
81.7308, 0.0212894
82.9327, 0.0212924
84.1346, 0.021299
85.3365, 0.0213049
86.5385, 0.0213075
87.7404, 0.0213108
88.9423, 0.0213141
90.1442, 0.0213159
91.3462, 0.0213175
92.5481, 0.0213221
93.75, 0.0213261
94.9519, 0.0213279
96.1538, 0.0213305
97.3558, 0.0213343
98.5577, 0.021337
99.7596, 0.021339
100.962, 0.0213427
102.163, 0.0213464
103.365, 0.021349
104.567, 0.0213511
105.769, 0.0213536
106.971, 0.0213547
108.173, 0.0213546
109.375, 0.0213552
110.577, 0.0213549
111.779, 0.0213551
112.981, 0.0213574
114.183, 0.0213589
115.385, 0.0213597
116.587, 0.0213621
117.788, 0.0213639
118.99, 0.0213667
120.192, 0.02137
121.394, 0.0213707
122.596, 0.0213705
123.798, 0.0213696
125, 0.0213703
126.202, 0.0213726
127.404, 0.0213745
128.606, 0.0213773
129.808, 0.021379
131.01, 0.0213787
132.212, 0.0213335
133.413, 0.0211384
134.615, 0.0207411
135.817, 0.0201908
137.019, 0.0195675
138.221, 0.0189296
139.423, 0.0183025
140.625, 0.0176939
141.827, 0.0171052
143.029, 0.0165361
144.231, 0.0159859
145.433, 0.015454
146.635, 0.0149398
147.837, 0.0144427
149.038, 0.0139622
150.24, 0.0134976
151.442, 0.0130485
152.644, 0.0126143
153.846, 0.0121946
155.048, 0.0117889
156.25, 0.0113966
157.452, 0.0110174
158.654, 0.0106508
159.856, 0.0102965
161.058, 0.00995387
162.26, 0.00962267
163.462, 0.0093025
164.663, 0.00899298
165.865, 0.00869376
167.067, 0.00840449
168.269, 0.00812485
169.471, 0.00785451
170.673, 0.00759317
171.875, 0.00734052
173.077, 0.00709628
174.279, 0.00686017
175.481, 0.00663191
176.683, 0.00641125
177.885, 0.00619793
179.087, 0.00599171
180.288, 0.00579235
181.49, 0.00559962
182.692, 0.0054133
183.894, 0.00523319
185.096, 0.00505906
186.298, 0.00489073
187.5, 0.00472801
188.702, 0.00457069
189.904, 0.00441861
191.106, 0.00427159
192.308, 0.00412946
193.51, 0.00399206
194.712, 0.00385924
195.913, 0.00373083
197.115, 0.00360669
198.317, 0.00348669
199.519, 0.00337068
200.721, 0.00325852
201.923, 0.0031501
203.125, 0.00304529
204.327, 0.00294397
205.529, 0.00284601
206.731, 0.00275132
207.933, 0.00265977
209.135, 0.00257127
210.337, 0.00248572
211.538, 0.00240301
212.74, 0.00232306
213.942, 0.00224576
215.144, 0.00217104
216.346, 0.0020988
217.548, 0.00202897
218.75, 0.00196146
219.952, 0.0018962
221.154, 0.00183311
222.356, 0.00177211
223.558, 0.00171315
224.76, 0.00165615
225.962, 0.00160104
227.163, 0.00154777
228.365, 0.00149627
229.567, 0.00144649
230.769, 0.00139836
231.971, 0.00135183
233.173, 0.00130685
234.375, 0.00126337
235.577, 0.00122133
236.779, 0.0011807
237.981, 0.00114141
239.183, 0.00110343
240.385, 0.00106672
241.587, 0.00103123
242.788, 0.000996914
243.99, 0.000963744
245.192, 0.000931678
246.394, 0.000900678
247.596, 0.00087071
248.798, 0.000841739
250, 0.000813732
251.202, 0.000786657
252.404, 0.000760482
253.606, 0.000735179
254.808, 0.000710718
256.01, 0.00068707
257.212, 0.000664209
258.413, 0.000642109
259.615, 0.000620744
260.817, 0.00060009
262.019, 0.000580124
